#  i        E [GeV]   yield [GeV^-1 ann^-1]
   1   0.209426E-07   0.709870E+05
   2   0.229631E-07   0.665372E+05
   3   0.251785E-07   0.624314E+05
   4   0.276077E-07   0.585904E+05
   5   0.302712E-07   0.551081E+05
   6   0.331917E-07   0.516315E+05
   7   0.363940E-07   0.483228E+05
   8   0.399052E-07   0.452799E+05
   9   0.437552E-07   0.424507E+05
  10   0.479767E-07   0.397730E+05
  11   0.526054E-07   0.372097E+05
  12   0.576806E-07   0.349407E+05
  13   0.632456E-07   0.326514E+05
  14   0.693474E-07   0.304879E+05
  15   0.760379E-07   0.285660E+05
  16   0.833739E-07   0.267311E+05
  17   0.914176E-07   0.250001E+05
  18   0.100237E-06   0.232972E+05
  19   0.109908E-06   0.217047E+05
  20   0.120512E-06   0.202756E+05
  21   0.132139E-06   0.189239E+05
  22   0.144887E-06   0.177036E+05
  23   0.158866E-06   0.165471E+05
  24   0.174193E-06   0.154498E+05
  25   0.190999E-06   0.144175E+05
  26   0.209426E-06   0.134584E+05
  27   0.229631E-06   0.125780E+05
  28   0.251785E-06   0.117528E+05
  29   0.276077E-06   0.109766E+05
  30   0.302712E-06   0.102495E+05
  31   0.331917E-06   0.958527E+04
  32   0.363940E-06   0.899285E+04
  33   0.399052E-06   0.840602E+04
  34   0.437552E-06   0.785018E+04
  35   0.479767E-06   0.734561E+04
  36   0.526054E-06   0.685980E+04
  37   0.576806E-06   0.640500E+04
  38   0.632456E-06   0.598141E+04
  39   0.693474E-06   0.558832E+04
  40   0.760379E-06   0.522331E+04
  41   0.833739E-06   0.487978E+04
  42   0.914176E-06   0.454459E+04
  43   0.100237E-05   0.423657E+04
  44   0.109908E-05   0.395337E+04
  45   0.120512E-05   0.368989E+04
  46   0.132139E-05   0.344285E+04
  47   0.144887E-05   0.320689E+04
  48   0.158866E-05   0.298488E+04
  49   0.174193E-05   0.278007E+04
  50   0.190999E-05   0.259288E+04
  51   0.209426E-05   0.241617E+04
  52   0.229631E-05   0.224930E+04
  53   0.251785E-05   0.209435E+04
  54   0.276077E-05   0.195018E+04
  55   0.302712E-05   0.181585E+04
  56   0.331917E-05   0.169304E+04
  57   0.363940E-05   0.157479E+04
  58   0.399052E-05   0.146449E+04
  59   0.437552E-05   0.136334E+04
  60   0.479767E-05   0.127075E+04
  61   0.526054E-05   0.118196E+04
  62   0.576806E-05   0.110026E+04
  63   0.632456E-05   0.102336E+04
  64   0.693474E-05   0.952113E+03
  65   0.760379E-05   0.886889E+03
  66   0.833739E-05   0.825361E+03
  67   0.914176E-05   0.767869E+03
  68   0.100237E-04   0.714251E+03
  69   0.109908E-04   0.664141E+03
  70   0.120512E-04   0.617384E+03
  71   0.132139E-04   0.574668E+03
  72   0.144887E-04   0.534004E+03
  73   0.158866E-04   0.496194E+03
  74   0.174193E-04   0.460927E+03
  75   0.190999E-04   0.428005E+03
  76   0.209426E-04   0.398234E+03
  77   0.229631E-04   0.369734E+03
  78   0.251785E-04   0.343199E+03
  79   0.276077E-04   0.318387E+03
  80   0.302712E-04   0.295157E+03
  81   0.331917E-04   0.274152E+03
  82   0.363940E-04   0.254066E+03
  83   0.399052E-04   0.235525E+03
  84   0.437552E-04   0.218475E+03
  85   0.479767E-04   0.202705E+03
  86   0.526054E-04   0.187848E+03
  87   0.576806E-04   0.173788E+03
  88   0.632456E-04   0.161153E+03
  89   0.693474E-04   0.149341E+03
  90   0.760379E-04   0.137997E+03
  91   0.833739E-04   0.128030E+03
  92   0.914176E-04   0.118493E+03
  93   0.100237E-03   0.109610E+03
  94   0.109908E-03   0.101451E+03
  95   0.120512E-03   0.939672E+02
  96   0.132139E-03   0.868313E+02
  97   0.144887E-03   0.803965E+02
  98   0.158866E-03   0.744114E+02
  99   0.174193E-03   0.688417E+02
 100   0.190999E-03   0.636668E+02
 101   0.209426E-03   0.587825E+02
 102   0.229631E-03   0.543639E+02
 103   0.251785E-03   0.502792E+02
 104   0.276077E-03   0.464899E+02
 105   0.302712E-03   0.429825E+02
 106   0.331917E-03   0.397770E+02
 107   0.363940E-03   0.367615E+02
 108   0.399052E-03   0.339958E+02
 109   0.437552E-03   0.314543E+02
 110   0.479767E-03   0.291068E+02
 111   0.526054E-03   0.269513E+02
 112   0.576806E-03   0.249290E+02
 113   0.632456E-03   0.231088E+02
 114   0.693474E-03   0.214482E+02
 115   0.760379E-03   0.199127E+02
 116   0.833739E-03   0.185488E+02
 117   0.914176E-03   0.172947E+02
 118   0.100237E-02   0.161610E+02
 119   0.109908E-02   0.151397E+02
 120   0.120512E-02   0.142211E+02
 121   0.132139E-02   0.134140E+02
 122   0.144887E-02   0.127117E+02
 123   0.158866E-02   0.121122E+02
 124   0.174193E-02   0.116005E+02
 125   0.190999E-02   0.111665E+02
 126   0.209426E-02   0.108456E+02
 127   0.229631E-02   0.106066E+02
 128   0.251785E-02   0.104443E+02
 129   0.276077E-02   0.103560E+02
 130   0.302712E-02   0.103355E+02
 131   0.331917E-02   0.104029E+02
 132   0.363940E-02   0.105645E+02
 133   0.399052E-02   0.107900E+02
 134   0.437552E-02   0.110728E+02
 135   0.479767E-02   0.114067E+02
 136   0.526054E-02   0.118283E+02
 137   0.576806E-02   0.123196E+02
 138   0.632456E-02   0.128589E+02
 139   0.693474E-02   0.134362E+02
 140   0.760379E-02   0.140396E+02
 141   0.833739E-02   0.147083E+02
 142   0.914176E-02   0.154408E+02
 143   0.100237E-01   0.161871E+02
 144   0.109908E-01   0.169381E+02
 145   0.120512E-01   0.176859E+02
 146   0.132139E-01   0.184763E+02
 147   0.144887E-01   0.192961E+02
 148   0.158866E-01   0.200985E+02
 149   0.174193E-01   0.208777E+02
 150   0.190999E-01   0.216246E+02
 151   0.209426E-01   0.223690E+02
 152   0.229631E-01   0.231175E+02
 153   0.251785E-01   0.238115E+02
 154   0.276077E-01   0.244486E+02
 155   0.302712E-01   0.250259E+02
 156   0.331917E-01   0.255742E+02
 157   0.363940E-01   0.260916E+02
 158   0.399052E-01   0.265308E+02
 159   0.437552E-01   0.268889E+02
 160   0.479767E-01   0.271662E+02
 161   0.526054E-01   0.274019E+02
 162   0.576806E-01   0.275722E+02
 163   0.632456E-01   0.276554E+02
 164   0.693474E-01   0.276525E+02
 165   0.760379E-01   0.275648E+02
 166   0.833739E-01   0.274183E+02
 167   0.914176E-01   0.272011E+02
 168   0.100237E+00   0.269030E+02
 169   0.109908E+00   0.265274E+02
 170   0.120512E+00   0.260782E+02
 171   0.132139E+00   0.255716E+02
 172   0.144887E+00   0.250025E+02
 173   0.158866E+00   0.243721E+02
 174   0.174193E+00   0.236868E+02
 175   0.190999E+00   0.229518E+02
 176   0.209426E+00   0.221715E+02
 177   0.229631E+00   0.213552E+02
 178   0.251785E+00   0.205045E+02
 179   0.276077E+00   0.196265E+02
 180   0.302712E+00   0.187291E+02
 181   0.331917E+00   0.178158E+02
 182   0.363940E+00   0.168884E+02
 183   0.399052E+00   0.159589E+02
 184   0.437552E+00   0.150337E+02
 185   0.479767E+00   0.141183E+02
 186   0.526054E+00   0.132121E+02
 187   0.576806E+00   0.123196E+02
 188   0.632456E+00   0.114506E+02
 189   0.693474E+00   0.106092E+02
 190   0.760379E+00   0.979881E+01
 191   0.833739E+00   0.901701E+01
 192   0.914176E+00   0.826575E+01
 193   0.100237E+01   0.755311E+01
 194   0.109908E+01   0.687987E+01
 195   0.120512E+01   0.624635E+01
 196   0.132139E+01   0.565060E+01
 197   0.144887E+01   0.509224E+01
 198   0.158866E+01   0.457447E+01
 199   0.174193E+01   0.409625E+01
 200   0.190999E+01   0.365620E+01
 201   0.209426E+01   0.325167E+01
 202   0.229631E+01   0.288154E+01
 203   0.251785E+01   0.254538E+01
 204   0.276077E+01   0.224116E+01
 205   0.302712E+01   0.196683E+01
 206   0.331917E+01   0.171985E+01
 207   0.363940E+01   0.149847E+01
 208   0.399052E+01   0.130113E+01
 209   0.437552E+01   0.112573E+01
 210   0.479767E+01   0.970297E+00
 211   0.526054E+01   0.832943E+00
 212   0.576806E+01   0.712258E+00
 213   0.632456E+01   0.606600E+00
 214   0.693474E+01   0.514426E+00
 215   0.760379E+01   0.434325E+00
 216   0.833739E+01   0.365167E+00
 217   0.914176E+01   0.305740E+00
 218   0.100237E+02   0.254780E+00
 219   0.109908E+02   0.211262E+00
 220   0.120512E+02   0.174256E+00
 221   0.132139E+02   0.143040E+00
 222   0.144887E+02   0.116842E+00
 223   0.158866E+02   0.948675E-01
 224   0.174193E+02   0.765256E-01
 225   0.190999E+02   0.612973E-01
 226   0.209426E+02   0.488325E-01
 227   0.229631E+02   0.386839E-01
 228   0.251785E+02   0.303962E-01
 229   0.276077E+02   0.236696E-01
 230   0.302712E+02   0.182470E-01
 231   0.331917E+02   0.139558E-01
 232   0.363940E+02   0.105928E-01
 233   0.399052E+02   0.794518E-02
 234   0.437552E+02   0.588058E-02
 235   0.479767E+02   0.428758E-02
 236   0.526054E+02   0.309352E-02
 237   0.576806E+02   0.221029E-02
 238   0.632456E+02   0.155159E-02
 239   0.693474E+02   0.106753E-02
 240   0.760379E+02   0.717665E-03
 241   0.833739E+02   0.476330E-03
 242   0.914176E+02   0.312655E-03
 243   0.100237E+03   0.199774E-03
 244   0.109908E+03   0.123828E-03
 245   0.120512E+03   0.741766E-04
 246   0.132139E+03   0.437596E-04
 247   0.144887E+03   0.250871E-04
 248   0.158866E+03   0.130279E-04
 249   0.174193E+03   0.535382E-05
 250   0.190999E+03   0.934045E-06
