#  i        E [GeV]   yield [GeV^-1 ann^-1]
   1   0.209426E-07   0.331798E+01
   2   0.229631E-07   0.387333E+01
   3   0.251785E-07   0.455364E+01
   4   0.276077E-07   0.463118E+01
   5   0.302712E-07   0.417778E+01
   6   0.331917E-07   0.581995E+01
   7   0.363940E-07   0.607158E+01
   8   0.399052E-07   0.531097E+01
   9   0.437552E-07   0.539950E+01
  10   0.479767E-07   0.690864E+01
  11   0.526054E-07   0.598374E+01
  12   0.576806E-07   0.811959E+01
  13   0.632456E-07   0.878950E+01
  14   0.693474E-07   0.894800E+01
  15   0.760379E-07   0.956800E+01
  16   0.833739E-07   0.919284E+01
  17   0.914176E-07   0.976737E+01
  18   0.100237E-06   0.967049E+01
  19   0.109908E-06   0.942021E+01
  20   0.120512E-06   0.961191E+01
  21   0.132139E-06   0.103227E+02
  22   0.144887E-06   0.118412E+02
  23   0.158866E-06   0.126189E+02
  24   0.174193E-06   0.127491E+02
  25   0.190999E-06   0.127261E+02
  26   0.209426E-06   0.136767E+02
  27   0.229631E-06   0.141286E+02
  28   0.251785E-06   0.144198E+02
  29   0.276077E-06   0.153962E+02
  30   0.302712E-06   0.171725E+02
  31   0.331917E-06   0.175206E+02
  32   0.363940E-06   0.190243E+02
  33   0.399052E-06   0.200250E+02
  34   0.437552E-06   0.203212E+02
  35   0.479767E-06   0.202596E+02
  36   0.526054E-06   0.213090E+02
  37   0.576806E-06   0.238889E+02
  38   0.632456E-06   0.248688E+02
  39   0.693474E-06   0.254522E+02
  40   0.760379E-06   0.267566E+02
  41   0.833739E-06   0.279961E+02
  42   0.914176E-06   0.292360E+02
  43   0.100237E-05   0.307133E+02
  44   0.109908E-05   0.323246E+02
  45   0.120512E-05   0.338326E+02
  46   0.132139E-05   0.347513E+02
  47   0.144887E-05   0.364281E+02
  48   0.158866E-05   0.381125E+02
  49   0.174193E-05   0.396109E+02
  50   0.190999E-05   0.410319E+02
  51   0.209426E-05   0.433780E+02
  52   0.229631E-05   0.458599E+02
  53   0.251785E-05   0.480698E+02
  54   0.276077E-05   0.502214E+02
  55   0.302712E-05   0.525636E+02
  56   0.331917E-05   0.555204E+02
  57   0.363940E-05   0.579643E+02
  58   0.399052E-05   0.605390E+02
  59   0.437552E-05   0.632672E+02
  60   0.479767E-05   0.660707E+02
  61   0.526054E-05   0.691633E+02
  62   0.576806E-05   0.723774E+02
  63   0.632456E-05   0.758726E+02
  64   0.693474E-05   0.793771E+02
  65   0.760379E-05   0.826978E+02
  66   0.833739E-05   0.863627E+02
  67   0.914176E-05   0.903876E+02
  68   0.100237E-04   0.945477E+02
  69   0.109908E-04   0.989486E+02
  70   0.120512E-04   0.103576E+03
  71   0.132139E-04   0.108346E+03
  72   0.144887E-04   0.113060E+03
  73   0.158866E-04   0.118343E+03
  74   0.174193E-04   0.123559E+03
  75   0.190999E-04   0.128375E+03
  76   0.209426E-04   0.134463E+03
  77   0.229631E-04   0.140823E+03
  78   0.251785E-04   0.147203E+03
  79   0.276077E-04   0.153513E+03
  80   0.302712E-04   0.159758E+03
  81   0.331917E-04   0.166844E+03
  82   0.363940E-04   0.173992E+03
  83   0.399052E-04   0.181406E+03
  84   0.437552E-04   0.188882E+03
  85   0.479767E-04   0.196206E+03
  86   0.526054E-04   0.204024E+03
  87   0.576806E-04   0.212293E+03
  88   0.632456E-04   0.220851E+03
  89   0.693474E-04   0.229435E+03
  90   0.760379E-04   0.237780E+03
  91   0.833739E-04   0.246426E+03
  92   0.914176E-04   0.255644E+03
  93   0.100237E-03   0.264465E+03
  94   0.109908E-03   0.273110E+03
  95   0.120512E-03   0.281687E+03
  96   0.132139E-03   0.290344E+03
  97   0.144887E-03   0.299292E+03
  98   0.158866E-03   0.307826E+03
  99   0.174193E-03   0.315836E+03
 100   0.190999E-03   0.323229E+03
 101   0.209426E-03   0.330499E+03
 102   0.229631E-03   0.337742E+03
 103   0.251785E-03   0.344151E+03
 104   0.276077E-03   0.349658E+03
 105   0.302712E-03   0.354189E+03
 106   0.331917E-03   0.357957E+03
 107   0.363940E-03   0.361151E+03
 108   0.399052E-03   0.363113E+03
 109   0.437552E-03   0.363841E+03
 110   0.479767E-03   0.363328E+03
 111   0.526054E-03   0.361620E+03
 112   0.576806E-03   0.359090E+03
 113   0.632456E-03   0.354959E+03
 114   0.693474E-03   0.349434E+03
 115   0.760379E-03   0.342751E+03
 116   0.833739E-03   0.334922E+03
 117   0.914176E-03   0.325947E+03
 118   0.100237E-02   0.315770E+03
 119   0.109908E-02   0.304720E+03
 120   0.120512E-02   0.293040E+03
 121   0.132139E-02   0.280507E+03
 122   0.144887E-02   0.267441E+03
 123   0.158866E-02   0.254025E+03
 124   0.174193E-02   0.240467E+03
 125   0.190999E-02   0.226924E+03
 126   0.209426E-02   0.213293E+03
 127   0.229631E-02   0.200005E+03
 128   0.251785E-02   0.187165E+03
 129   0.276077E-02   0.174819E+03
 130   0.302712E-02   0.163019E+03
 131   0.331917E-02   0.151870E+03
 132   0.363940E-02   0.141505E+03
 133   0.399052E-02   0.131895E+03
 134   0.437552E-02   0.123073E+03
 135   0.479767E-02   0.115052E+03
 136   0.526054E-02   0.107860E+03
 137   0.576806E-02   0.101489E+03
 138   0.632456E-02   0.958649E+02
 139   0.693474E-02   0.909362E+02
 140   0.760379E-02   0.866444E+02
 141   0.833739E-02   0.830322E+02
 142   0.914176E-02   0.800740E+02
 143   0.100237E-01   0.775987E+02
 144   0.109908E-01   0.755373E+02
 145   0.120512E-01   0.738249E+02
 146   0.132139E-01   0.725089E+02
 147   0.144887E-01   0.715512E+02
 148   0.158866E-01   0.707755E+02
 149   0.174193E-01   0.701213E+02
 150   0.190999E-01   0.695437E+02
 151   0.209426E-01   0.691156E+02
 152   0.229631E-01   0.687558E+02
 153   0.251785E-01   0.683568E+02
 154   0.276077E-01   0.678876E+02
 155   0.302712E-01   0.673239E+02
 156   0.331917E-01   0.667068E+02
 157   0.363940E-01   0.660104E+02
 158   0.399052E-01   0.651548E+02
 159   0.437552E-01   0.641455E+02
 160   0.479767E-01   0.629905E+02
 161   0.526054E-01   0.617053E+02
 162   0.576806E-01   0.602828E+02
 163   0.632456E-01   0.587124E+02
 164   0.693474E-01   0.570039E+02
 165   0.760379E-01   0.551712E+02
 166   0.833739E-01   0.532376E+02
 167   0.914176E-01   0.512005E+02
 168   0.100237E+00   0.490807E+02
 169   0.109908E+00   0.468960E+02
 170   0.120512E+00   0.446643E+02
 171   0.132139E+00   0.423934E+02
 172   0.144887E+00   0.400931E+02
 173   0.158866E+00   0.377953E+02
 174   0.174193E+00   0.355152E+02
 175   0.190999E+00   0.332667E+02
 176   0.209426E+00   0.310518E+02
 177   0.229631E+00   0.288761E+02
 178   0.251785E+00   0.267679E+02
 179   0.276077E+00   0.247358E+02
 180   0.302712E+00   0.227866E+02
 181   0.331917E+00   0.209163E+02
 182   0.363940E+00   0.191286E+02
 183   0.399052E+00   0.174391E+02
 184   0.437552E+00   0.158499E+02
 185   0.479767E+00   0.143610E+02
 186   0.526054E+00   0.129626E+02
 187   0.576806E+00   0.116590E+02
 188   0.632456E+00   0.104534E+02
 189   0.693474E+00   0.934199E+01
 190   0.760379E+00   0.832110E+01
 191   0.833739E+00   0.738425E+01
 192   0.914176E+00   0.652817E+01
 193   0.100237E+01   0.575106E+01
 194   0.109908E+01   0.504875E+01
 195   0.120512E+01   0.441675E+01
 196   0.132139E+01   0.384837E+01
 197   0.144887E+01   0.333972E+01
 198   0.158866E+01   0.288725E+01
 199   0.174193E+01   0.248619E+01
 200   0.190999E+01   0.213196E+01
 201   0.209426E+01   0.182043E+01
 202   0.229631E+01   0.154784E+01
 203   0.251785E+01   0.131028E+01
 204   0.276077E+01   0.110402E+01
 205   0.302712E+01   0.925659E+00
 206   0.331917E+01   0.772628E+00
 207   0.363940E+01   0.641990E+00
 208   0.399052E+01   0.530750E+00
 209   0.437552E+01   0.436464E+00
 210   0.479767E+01   0.356938E+00
 211   0.526054E+01   0.290653E+00
 212   0.576806E+01   0.235704E+00
 213   0.632456E+01   0.190178E+00
 214   0.693474E+01   0.152663E+00
 215   0.760379E+01   0.121919E+00
 216   0.833739E+01   0.971340E-01
 217   0.914176E+01   0.772559E-01
 218   0.100237E+02   0.612486E-01
 219   0.109908E+02   0.484467E-01
 220   0.120512E+02   0.382817E-01
 221   0.132139E+02   0.303772E-01
 222   0.144887E+02   0.242371E-01
 223   0.158866E+02   0.194022E-01
 224   0.174193E+02   0.156102E-01
 225   0.190999E+02   0.126476E-01
 226   0.209426E+02   0.103711E-01
 227   0.229631E+02   0.861640E-02
 228   0.251785E+02   0.723407E-02
 229   0.276077E+02   0.614327E-02
 230   0.302712E+02   0.527605E-02
 231   0.331917E+02   0.457000E-02
 232   0.363940E+02   0.395551E-02
 233   0.399052E+02   0.341920E-02
 234   0.437552E+02   0.294270E-02
 235   0.479767E+02   0.251072E-02
 236   0.526054E+02   0.211139E-02
 237   0.576806E+02   0.175698E-02
 238   0.632456E+02   0.144686E-02
 239   0.693474E+02   0.117547E-02
 240   0.760379E+02   0.936885E-03
 241   0.833739E+02   0.723873E-03
 242   0.914176E+02   0.533162E-03
 243   0.100237E+03   0.366769E-03
 244   0.109908E+03   0.226648E-03
 245   0.120512E+03   0.115168E-03
 246   0.132139E+03   0.404304E-04
 247   0.144887E+03   0.980480E-05
 248   0.158866E+03   0.635186E-06
 249   0.174193E+03   0.189083E-07
 250   0.190999E+03   0.181905E-09
